wave, intensity
85.98978, 19.04399
87.91824, 17.57844
89.84671, 17.18134
91.77518, 19.22836
93.70364, 21.66796
95.63211, 22.39219
97.56058, 20.71306
99.48904, 18.89181
101.4175, 17.70865
103.3460, 17.46029
105.2744, 16.80953
107.2029, 15.12510
109.1314, 13.26233
111.0598, 12.13208
112.9883, 12.23746
114.9168, 12.73771
116.8452, 13.38731
118.7737, 14.15339
120.7022, 15.53247
122.6306, 17.77412
124.5591, 20.65013
126.4876, 23.94244
128.4160, 27.51525
130.3445, 31.58893
132.2730, 36.29248
134.2014, 41.66706
136.1299, 47.30709
138.0584, 53.79224
139.9868, 60.58056
141.9153, 65.82792
143.8438, 68.38210
145.7722, 70.52151
147.7007, 73.46712
149.6292, 77.57320
151.5576, 77.42442
153.4861, 74.92699
155.4146, 71.34811
157.3430, 68.64014
159.2715, 67.57580
161.2000, 66.71612
163.1284, 65.37704
165.0569, 63.32746
166.9854, 61.68630
168.9138, 60.96830
170.8423, 60.95426
172.7708, 60.35938
174.6992, 58.10160
176.6277, 56.18564
178.5562, 56.04787
180.4846, 58.13408
182.4131, 59.60577
184.3416, 59.87168
186.2701, 59.12120
188.1985, 58.29333
190.1270, 57.27837
192.0555, 56.07051
193.9839, 54.79883
195.9124, 52.95316
197.8409, 52.06109
199.7693, 52.76856
201.6978, 54.53168
203.6263, 55.69989
205.5547, 55.88911
207.4832, 55.77394
209.4117, 55.61255
211.3401, 55.37581
213.2686, 55.02641
215.1971, 54.47697
217.1255, 53.91578
219.0540, 53.62470
220.9825, 53.80778
222.9109, 54.03269
224.8394, 54.16020
226.7679, 54.17741
228.6963, 54.22095
230.6248, 54.28740
232.5533, 54.42733
234.4817, 54.73980
236.4102, 55.24632
238.3387, 55.80291
240.2671, 56.52574
242.1956, 57.54102
244.1241, 58.28001
246.0525, 58.47622
247.9810, 58.25564
249.9095, 58.03782
251.8379, 57.95309
253.7664, 57.65687
255.6949, 57.14041
257.6233, 56.21997
259.5518, 55.94063
261.4803, 56.52857
263.4087, 57.27574
265.3372, 57.59788
267.2657, 57.43343
269.1941, 57.21519
271.1226, 56.85711
273.0511, 56.27502
274.9795, 55.77211
276.9080, 55.61241
278.8365, 55.42514
280.7649, 55.08235
282.6934, 54.27298
284.6219, 54.07906
286.5503, 54.64639
288.4788, 55.71369
290.4073, 56.33997
292.3357, 56.39975
294.2642, 56.47545
296.1927, 56.66637
298.1211, 56.99967
300.0496, 57.18817
301.9781, 57.47672
303.9065, 57.75556
305.8350, 57.75223
307.7635, 57.30951
309.6919, 56.69960
311.6204, 55.79177
313.5489, 54.41348
315.4773, 53.51249
317.4058, 53.42934
319.3343, 53.93376
321.2627, 54.64533
323.1912, 56.13994
325.1197, 57.00216
327.0481, 56.85173
328.9766, 55.96361
330.9051, 55.52354
332.8336, 55.63248
334.7620, 55.73415
336.6905, 55.61369
338.6190, 55.35283
340.5474, 54.94955
342.4759, 54.29640
344.4044, 53.58243
346.3328, 53.12404
348.2613, 52.81609
350.1898, 52.50403
352.1182, 52.25847
354.0467, 52.10321
355.9752, 52.05870
357.9036, 52.60211
359.8321, 53.28376
361.7606, 53.47722
363.6890, 52.70575
365.6175, 51.91531
367.5460, 50.94620
369.4744, 49.82801
371.4029, 48.98347
373.3314, 48.85294
375.2598, 49.10525
377.1883, 49.54134
379.1168, 50.27206
381.0452, 50.22656
382.9737, 48.89454
384.9022, 47.17962
386.8306, 46.44111
388.7591, 48.04644
390.6876, 49.81549
392.6160, 50.54210
394.5445, 49.92741
396.4730, 49.11769
398.4014, 48.91701
400.3299, 48.88261
402.2584, 48.63486
404.1868, 47.62151
406.1153, 46.89639
408.0438, 46.62505
409.9722, 46.79042
411.9007, 47.20968
413.8292, 47.72054
415.7576, 47.68501
417.6861, 47.31583
419.6146, 47.01134
421.5430, 46.97897
423.4715, 46.56459
425.4000, 46.07486
427.3284, 45.77961
429.2569, 45.75147
431.1854, 45.40376
433.1138, 44.76613
435.0423, 44.23204
436.9708, 44.34456
438.8992, 45.35307
440.8277, 46.53426
442.7562, 47.57150
444.6846, 48.33438
446.6131, 48.76297
448.5416, 48.68534
450.4700, 48.12587
452.3985, 47.17142
454.3270, 46.09484
456.2554, 45.60873
458.1839, 45.53419
460.1124, 45.51479
462.0408, 45.04805
463.9693, 44.47657
465.8978, 44.34143
467.8262, 44.84760
469.7547, 45.71568
471.6832, 46.21639
473.6116, 46.35536
475.5401, 46.32688
477.4686, 46.14757
479.3970, 45.88978
481.3255, 45.81470
483.2540, 45.86304
485.1824, 45.98289
487.1109, 46.21344
489.0394, 46.54385
490.9678, 46.56019
492.8963, 46.20534
494.8248, 45.91600
496.7532, 46.23668
498.6817, 46.90601
500.6102, 47.04332
502.5386, 46.43323
504.4671, 45.89141
506.3956, 46.01027
508.3240, 46.26973
510.2525, 46.34969
512.1810, 46.26886
514.1094, 46.14754
516.0379, 45.88232
517.9664, 45.24607
519.8948, 44.53848
521.8233, 44.06541
523.7518, 44.42203
525.6802, 45.13768
527.6087, 45.88020
529.5372, 46.23623
531.4656, 46.29290
533.3941, 46.20523
535.3226, 46.39955
537.2510, 47.31921
539.1795, 48.81396
541.1080, 49.68722
543.0364, 49.01852
544.9649, 47.99535
546.8934, 47.25758
548.8218, 46.90187
550.7503, 47.14817
552.6788, 48.79932
554.6072, 50.25468
556.5357, 49.82450
558.4642, 47.35413
560.3926, 45.90179
562.3211, 46.13461
564.2496, 47.24887
566.1780, 48.26937
568.1065, 49.32971
570.0350, 50.04406
571.9634, 50.19704
573.8919, 50.20816
575.8204, 50.13100
577.7488, 49.21859
579.6773, 48.54823
581.6058, 48.75602
583.5342, 49.91957
585.4627, 50.92114
587.3912, 51.70055
589.3196, 51.90836
591.2481, 51.16072
593.1766, 49.46093
595.1050, 48.78318
597.0335, 49.75304
598.9620, 50.88163
600.8904, 50.83474
602.8189, 49.49371
604.7474, 48.80358
606.6758, 49.80951
608.6043, 51.36065
610.5328, 51.66035
612.4612, 50.86375
614.3897, 50.19054
616.3182, 49.55104
618.2466, 48.49769
620.1751, 48.15782
622.1036, 49.82074
624.0320, 51.35519
625.9605, 51.85626
627.8890, 51.27322
629.8174, 50.87488
631.7459, 50.68208
633.6744, 50.60734
635.6028, 50.53534
637.5313, 50.36691
639.4598, 50.61723
641.3882, 52.29506
643.3167, 54.15083
645.2452, 55.38961
647.1736, 55.27495
649.1021, 54.81750
651.0306, 53.65295
652.9590, 52.81761
654.8875, 52.82960
656.8160, 54.10072
658.7444, 54.95778
660.6729, 55.10669
662.6014, 54.78370
664.5298, 54.18913
666.4583, 53.41267
668.3868, 53.23201
670.3152, 54.42956
672.2437, 55.97004
674.1722, 56.90531
676.1006, 56.02868
678.0291, 55.48145
679.9576, 55.64010
681.8860, 56.47361
683.8145, 57.17498
685.7430, 57.66010
687.6714, 58.03945
689.5999, 58.53069
691.5284, 59.03676
693.4568, 59.19537
695.3853, 58.17753
697.3138, 57.39350
699.2422, 57.12170
701.1707, 57.69065
703.0992, 58.68079
705.0276, 60.71514
706.9561, 61.87611
708.8846, 61.47372
710.8130, 59.83202
712.7415, 58.89439
714.6700, 59.10773
716.5984, 59.78993
718.5269, 60.99067
720.4554, 62.35713
722.3839, 63.18361
724.3123, 62.78500
726.2408, 62.46464
728.1693, 62.71740
730.0977, 63.42553
732.0262, 63.90697
733.9547, 64.08930
735.8831, 64.23854
737.8116, 64.42104
739.7401, 64.61770
741.6685, 64.84489
743.5970, 65.15597
745.5255, 65.48972
747.4539, 65.72047
749.3824, 65.85835
751.3109, 66.25318
753.2393, 67.21605
755.1678, 68.03855
757.0963, 68.26680
759.0247, 67.84138
760.9532, 67.87476
762.8817, 68.96571
764.8101, 69.97000
766.7386, 70.19250
768.6671, 69.68241
770.5955, 69.52729
772.5240, 69.92046
774.4525, 68.87865
776.3809, 71.41573
778.3094, 72.99421
780.2379, 73.66487
782.1663, 70.75007
784.0948, 72.43341
786.0233, 72.25465
787.9517, 71.98624
789.8802, 74.27716
791.8087, 71.81264
793.7371, 74.03507
795.6656, 74.36719
797.5941, 75.54428
799.5225, 74.84784
801.4510, 74.71195
803.3795, 76.42251
805.3079, 77.08916
807.2364, 76.12327
809.1649, 77.27190
811.0933, 74.60397
813.0218, 75.25912
814.9503, 77.34017
816.8787, 76.39857
818.8072, 77.51197
820.7357, 77.82360
822.6641, 74.54056
824.5926, 77.47109
826.5211, 77.69463
828.4495, 75.13904
830.3780, 77.81466
832.3065, 75.61261
834.2349, 75.13280
836.1634, 75.94568
838.0919, 74.92023
840.0203, 76.81229
841.9488, 78.73789
843.8773, 79.52449
845.8057, 79.05771
847.7342, 78.65112
849.6627, 78.45068
851.5911, 78.21365
853.5196, 77.64580
855.4481, 77.51952
857.3765, 76.59874
859.3050, 76.98387
861.2335, 77.00857
863.1619, 76.67374
865.0904, 76.04505
867.0189, 75.20295
868.9473, 74.42997
870.8758, 74.01141
872.8043, 73.91912
874.7327, 73.59306
876.6612, 72.94753
878.5897, 71.75876
880.5181, 70.52382
882.4466, 69.50688
884.3751, 68.55462
886.3035, 67.68133
888.2320, 67.31534
890.1605, 67.13316
892.0889, 66.89666
894.0174, 66.40193
895.9459, 65.77596
897.8743, 65.00069
899.8028, 64.28867
901.7313, 63.80325
903.6597, 62.78863
905.5882, 61.69701
907.5167, 61.76603
909.4451, 62.09546
911.3736, 62.30087
913.3021, 61.70164
915.2305, 60.91160
917.1590, 59.94729
919.0875, 59.14489
921.0159, 58.41797
922.9444, 57.99166
924.8729, 58.22153
926.8013, 59.00850
928.7298, 59.19428
930.6583, 58.41084
932.5867, 57.67846
934.5152, 57.74024
936.4437, 58.26487
938.3721, 58.44164
940.3006, 57.75611
942.2291, 57.20536
944.1575, 57.39077
946.0860, 58.37392
948.0145, 58.79003
949.9429, 58.00092
951.8714, 56.82736
953.7999, 56.09739
955.7283, 56.05014
957.6568, 56.00288
959.5853, 56.05344
961.5137, 56.09601
963.4422, 55.89600
965.3707, 55.63340
967.2991, 55.48719
969.2276, 55.49210
971.1561, 55.82988
973.0845, 56.73912
975.0130, 57.40229
976.9415, 57.18066
978.8699, 56.69936
980.7984, 56.63359
982.7269, 57.37756
984.6553, 57.86036
986.5838, 57.26720
988.5123, 55.84643
990.4407, 54.93647
992.3692, 54.67178
994.2977, 54.48438
996.2261, 54.61350
998.1546, 55.91659
1000.083, 56.92165
1002.012, 57.42079
1003.940, 57.69679
1005.868, 58.00027
1007.797, 58.28973
1009.725, 58.37001
1011.654, 57.39391
1013.582, 56.28826
1015.511, 56.01418
1017.439, 56.93832
1019.368, 57.59406
1021.296, 57.47915
1023.225, 57.17430
1025.153, 56.82228
1027.082, 56.69261
1029.010, 57.32174
1030.939, 58.97205
1032.867, 60.26085
1034.796, 60.58472
1036.724, 60.16309
1038.652, 59.59773
1040.581, 59.32642
1042.509, 59.51571
1044.438, 60.05685
1046.366, 60.32386
1048.295, 59.90423
1050.223, 58.55660
1052.152, 57.42555
1054.080, 57.29840
1056.009, 57.62717
1057.937, 57.90564
1059.866, 57.70029
1061.794, 57.20549
1063.723, 56.11149
1065.651, 54.93702
1067.579, 54.27444
1069.508, 54.26611
1071.436, 54.33561
1073.365, 53.59199
1075.293, 52.85700
1077.222, 52.81597
1079.150, 53.14290
1081.079, 52.95010
1083.007, 51.71479
1084.936, 51.15143
1086.864, 52.30639
1088.793, 53.91440
1090.721, 54.24250
1092.650, 52.74018
1094.578, 51.37339
1096.506, 51.56544
1098.435, 52.64303
1100.363, 53.73903
1102.292, 54.12611
1104.220, 53.29350
1106.149, 51.65908
1108.077, 50.49471
1110.006, 49.66264
1111.934, 49.05679
1113.863, 48.83230
1115.791, 49.31099
1117.720, 49.75926
1119.648, 49.69043
1121.577, 49.24333
1123.505, 48.68441
1125.433, 48.14683
1127.362, 47.72830
1129.290, 48.03910
1131.219, 49.06289
1133.147, 49.32790
1135.076, 48.36426
1137.004, 48.98694
1138.933, 47.75635
1140.861, 48.63067
1142.790, 48.25873
1144.718, 47.45930
1146.647, 47.31252
1148.575, 46.87729
1150.504, 47.25795
1152.432, 46.37383
1154.360, 46.43970
1156.289, 46.38238
1158.217, 45.55396
1160.146, 44.56523
1162.074, 44.76984
1164.003, 45.13932
1165.931, 45.49639
1167.860, 45.94318
1169.788, 46.09647
1171.717, 45.11152
1173.645, 44.44822
1175.574, 45.04450
1177.502, 46.27063
1179.431, 46.98547
1181.359, 46.63299
1183.287, 45.79023
1185.216, 45.42756
1187.144, 45.85059
1189.073, 45.62098
1191.001, 44.59215
1192.930, 44.03234
1194.858, 44.73142
1196.787, 45.70271
1198.715, 45.93397
1200.644, 45.68790
1202.572, 45.29071
1204.501, 44.91304
1206.429, 44.90050
1208.358, 45.43447
1210.286, 45.63231
1212.214, 45.24535
1214.143, 44.53008
1216.071, 44.30347
1218.000, 44.82814
1219.928, 45.63759
1221.857, 46.22071
1223.785, 46.42646
1225.714, 46.36894
1227.642, 46.11333
1229.571, 46.16872
1231.499, 46.96613
1233.428, 47.59992
1235.356, 47.45239
1237.285, 47.12842
1239.213, 46.78956
1241.141, 46.15038
1243.070, 45.34151
1244.998, 44.81106
1246.927, 45.00734
1248.855, 45.68524
1250.784, 46.13939
1252.712, 45.65361
1254.641, 44.08779
1256.569, 43.33697
1258.498, 44.33277
1260.426, 45.34669
1262.355, 44.79259
1264.283, 42.90213
1266.212, 42.37877
1268.140, 44.59730
1270.068, 46.63291
1271.997, 46.90346
1273.925, 46.06935
1275.854, 45.57475
1277.782, 45.62235
1279.711, 46.00191
1281.639, 47.05164
1283.568, 47.90369
1285.496, 47.71277
1287.425, 46.59586
1289.353, 46.07238
1291.282, 46.68975
1293.210, 46.97574
1295.139, 45.77670
1297.067, 44.28257
1298.995, 44.15690
1300.924, 45.29817
1302.852, 46.18842
1304.781, 46.56161
1306.709, 46.81903
1308.638, 46.97992
1310.566, 46.77221
1312.495, 46.55700
1314.423, 46.53132
1316.352, 47.01858
1318.280, 48.67920
1320.209, 49.58366
1322.137, 48.68584
1324.066, 46.74873
1325.994, 45.72215
1327.922, 46.03082
1329.851, 46.49330
1331.779, 47.40638
1333.708, 48.18557
1335.636, 48.34921
1337.565, 48.10439
1339.493, 47.45983
1341.422, 45.97813
1343.350, 45.25080
1345.279, 46.48916
1347.207, 48.15252
1349.136, 49.05526
1351.064, 49.19696
1352.993, 49.06347
1354.921, 48.50238
1356.849, 48.28957
1358.778, 49.08326
1360.706, 49.85857
1362.635, 49.52167
1364.563, 47.81795
1366.492, 47.09296
1368.420, 48.44856
1370.349, 49.39585
1372.277, 49.11648
1374.206, 48.34426
1376.134, 47.87954
1378.063, 47.70118
1379.991, 47.91123
1381.920, 49.02948
1383.848, 49.88979
1385.776, 50.07580
1387.705, 49.97218
1389.633, 49.73662
1391.562, 49.23109
1393.490, 48.83989
1395.419, 48.66236
1397.347, 48.65387
1399.276, 48.74093
1401.204, 48.92120
1403.133, 49.24873
1405.061, 49.71999
1406.990, 50.37318
1408.918, 51.41865
1410.847, 52.38232
1412.775, 53.44743
1414.703, 54.18666
1416.632, 53.36982
1418.560, 49.87165
1420.489, 48.13784
1422.417, 49.88121
1424.346, 51.79198
1426.274, 52.66183
1428.203, 52.69744
1430.131, 52.24591
1432.060, 50.59626
1433.988, 50.03638
1435.917, 51.67201
1437.845, 53.20348
1439.774, 53.25236
1441.702, 52.49854
1443.630, 52.59900
1445.559, 53.74451
1447.487, 54.63404
1449.416, 55.41517
1451.344, 55.45760
1453.273, 53.33463
1455.201, 50.75673
1457.130, 50.82749
1459.058, 53.84424
1460.987, 56.20797
1462.915, 57.32549
1464.844, 57.66046
1466.772, 56.91028
1468.701, 55.74029
1470.629, 55.28450
1472.557, 55.65495
1474.486, 55.98363
1476.414, 55.74063
1478.343, 56.00014
1480.271, 57.88115
1482.200, 60.12520
1484.128, 60.71052
1486.057, 59.11875
1487.985, 58.94746
1489.914, 61.73009
1491.842, 64.02290
1493.771, 64.93632
1495.699, 65.07448
1497.628, 64.91157
1499.556, 64.26576
1501.484, 64.31696
1503.413, 65.76975
1505.341, 67.13209
1507.270, 68.07398
1509.198, 68.75489
1511.127, 69.22793
1513.055, 69.77962
1514.984, 70.99406
1516.912, 72.87020
1518.841, 74.90903
1520.769, 76.70267
1522.698, 79.02416
1524.626, 82.33047
1526.555, 86.59731
1528.483, 91.36712
1530.411, 96.34997
1532.340, 103.3247
1534.268, 112.2793
1536.197, 123.7667
1538.125, 138.1309
1540.054, 155.3060
1541.982, 175.6939
1543.911, 199.4313
1545.839, 222.9383
1547.768, 247.4990
1549.696, 268.5934
1551.625, 282.4372
1553.553, 292.7295
1555.482, 302.6340
1557.410, 312.0990
1559.339, 322.7545
1561.267, 331.8812
1563.195, 348.2147
1565.124, 376.4527
1567.052, 411.5438
1568.981, 450.9347
1570.909, 494.4272
1572.838, 540.6608
1574.766, 591.3586
1576.695, 637.9645
1578.623, 685.1480
1580.552, 720.1736
1582.480, 741.5478
1584.409, 745.9766
1586.337, 726.0214
1588.266, 678.2753
1590.194, 620.9976
1592.122, 545.1066
1594.051, 472.4964
1595.979, 406.0649
1597.908, 345.9275
1599.836, 291.3720
1601.765, 246.4413
1603.693, 203.4188
1605.622, 176.5436
1607.550, 154.3080
1609.479, 137.4349
1611.407, 124.1130
1613.336, 114.4400
1615.264, 107.5262
1617.193, 101.6015
1619.121, 96.87304
1621.049, 92.49654
1622.978, 88.50411
1624.906, 84.72538
1626.835, 80.81210
1628.763, 77.26881
1630.692, 74.61613
1632.620, 72.82425
1634.549, 71.56374
1636.477, 71.27493
1638.406, 70.40317
1640.334, 67.95725
1642.263, 65.91539
1644.191, 65.70701
1646.120, 66.17778
1648.048, 65.47329
1649.976, 63.46970
1651.905, 61.69643
1653.833, 59.60215
1655.762, 58.72422
1657.690, 60.47831
1659.619, 62.48088
1661.547, 63.22909
1663.476, 62.96282
1665.404, 62.21079
1667.333, 60.90854
1669.261, 59.64125
1671.190, 57.71686
1673.118, 56.91562
1675.047, 58.85475
1676.975, 61.32755
1678.903, 62.15686
1680.832, 61.61995
1682.760, 61.31533
1684.689, 61.36623
1686.617, 61.14959
1688.546, 60.15752
1690.474, 59.37654
1692.403, 59.39113
1694.331, 59.71737
1696.260, 59.79493
1698.188, 59.64591
1700.117, 59.48564
1702.045, 59.49241
1703.974, 58.99490
1705.902, 57.17989
1707.830, 55.61114
1709.759, 55.13195
1711.687, 55.31476
1713.616, 55.49090
1715.544, 56.01597
1717.473, 56.39854
1719.401, 57.92651
1721.330, 59.38594
1723.258, 61.12026
1725.187, 62.15398
1727.115, 61.41366
1729.044, 59.86042
1730.972, 59.19231
1732.901, 59.39746
1734.829, 59.22507
1736.757, 58.02643
1738.686, 57.79112
1740.614, 60.02241
1742.543, 62.16436
1744.471, 62.71768
1746.400, 62.22919
1748.328, 61.34808
1750.257, 60.04296
1752.185, 59.82172
1754.114, 61.61444
1756.042, 62.62909
1757.971, 61.61683
1759.899, 60.50275
1761.828, 60.29876
1763.756, 60.69387
1765.684, 61.46239
1767.613, 62.63717
1769.541, 62.66594
1771.470, 60.80447
1773.398, 59.27520
1775.327, 58.11452
1777.255, 57.64487
1779.184, 58.50155
1781.112, 59.85010
1783.041, 60.47757
1784.969, 60.41672
1786.898, 60.70573
1788.826, 62.37122
1790.755, 62.43617
1792.683, 59.14249
1794.611, 56.34076
1796.540, 55.44291
1798.468, 55.79282
1800.397, 57.19101
1802.325, 59.35823
1804.254, 60.57573
1806.182, 60.70703
1808.111, 60.14664
1810.039, 57.78086
1811.968, 56.27777
1813.896, 56.95285
1815.825, 58.09310
1817.753, 58.28384
1819.682, 57.91673
1821.610, 58.20535
1823.538, 59.50183
1825.467, 59.68029
1827.395, 57.66362
1829.324, 56.46166
1831.252, 57.27504
1833.181, 58.20936
1835.109, 58.27671
1837.038, 57.90264
1838.966, 57.52027
1840.895, 57.16927
1842.823, 57.67074
1844.752, 59.44421
1846.680, 60.44081
1848.609, 59.77030
1850.537, 59.22993
1852.465, 59.92641
1854.394, 60.66030
1856.322, 60.04530
1858.251, 58.83881
1860.179, 59.54737
1862.108, 62.21529
1864.036, 62.43507
1865.965, 58.67006
1867.893, 55.85549
1869.822, 55.82959
1871.750, 56.47492
1873.679, 57.02539
1875.607, 57.29496
1877.536, 56.62632
1879.464, 55.42589
1881.392, 55.55651
1883.321, 57.24595
1885.249, 59.05363
1887.178, 61.17937
1889.106, 62.69424
1891.035, 63.43325
1892.963, 63.34566
1894.892, 61.91722
1896.820, 59.88483
1898.749, 58.23874
1900.677, 57.00014
1902.606, 57.10504
1904.534, 59.66342
1906.463, 61.16036
1908.391, 60.80622
1910.319, 60.29477
1912.248, 59.83396
1914.176, 59.67767
1916.105, 60.27073
1918.033, 61.21220
1919.962, 61.67698
1921.890, 61.64465
1923.819, 61.26915
1925.747, 60.12072
1927.676, 59.78884
1929.604, 60.94046
1931.533, 62.22091
1933.461, 63.81087
1935.390, 64.76665
1937.318, 63.92234
1939.246, 62.16858
1941.175, 61.37577
1943.103, 61.43897
1945.032, 61.17485
1946.960, 60.35853
1948.889, 60.10420
1950.817, 61.05400
1952.746, 61.72724
1954.674, 61.04307
1956.603, 60.36018
1958.531, 60.80364
1960.460, 61.80351
1962.388, 62.40551
1964.317, 62.65948
1966.245, 63.25351
1968.173, 64.67519
1970.102, 64.67504
1972.030, 61.28029
1973.959, 59.11058
1975.887, 59.90350
1977.816, 61.37073
1979.744, 62.52006
1981.673, 63.30561
1983.601, 63.71165
1985.530, 63.69965
1987.458, 62.92480
1989.387, 61.05769
1991.315, 60.03841
1993.244, 60.15976
1995.172, 60.64495
1997.100, 62.10796
1999.029, 62.82770
2000.957, 61.28875
2002.886, 59.47221
2004.814, 58.96923
2006.743, 59.36085
2008.671, 59.73000
2010.600, 60.16547
2012.528, 61.84503
2014.457, 65.31930
2016.385, 66.95477
2018.314, 65.05254
2020.242, 63.37120
2022.171, 63.24786
2024.099, 63.46581
2026.027, 63.32538
2027.956, 63.14383
2029.884, 63.51591
2031.813, 64.16750
2033.741, 63.92303
2035.670, 62.52011
2037.598, 62.03770
2039.527, 62.87833
2041.455, 63.76988
2043.384, 65.20383
2045.312, 65.75449
2047.241, 64.57222
2049.169, 62.91054
2051.098, 60.78798
2053.026, 59.13939
2054.955, 59.76032
2056.883, 61.77260
2058.812, 62.14634
2060.740, 60.86498
2062.668, 60.80553
2064.597, 62.69599
2066.525, 63.87004
2068.454, 63.04515
2070.382, 62.64542
2072.311, 64.33408
2074.239, 65.66692
2076.168, 64.46738
2078.096, 62.52986
2080.025, 62.17624
2081.953, 62.97383
2083.882, 63.52141
2085.810, 63.86762
2087.739, 63.34214
2089.667, 61.34803
2091.595, 60.60573
2093.524, 62.15534
2095.452, 63.38186
2097.381, 63.57776
2099.309, 63.18855
2101.238, 61.78333
2103.166, 60.52919
2105.095, 60.98479
2107.023, 60.16383
2108.952, 59.94303
2110.880, 60.35379
2112.809, 59.90195
2114.737, 60.72827
2116.666, 61.60163
2118.594, 62.31800
2120.522, 63.32992
2122.451, 65.33257
2124.379, 66.70662
2126.308, 66.92535
2128.236, 66.38857
2130.165, 65.04685
2132.093, 63.33838
2134.022, 61.20583
2135.950, 59.27332
2137.879, 59.94973
2139.807, 58.83866
2141.736, 58.84541
2143.664, 60.35374
2145.593, 59.72464
2147.521, 63.56414
2149.449, 65.64187
2151.378, 62.94410
2153.306, 60.48705
2155.235, 60.14040
2157.163, 60.59018
2159.092, 60.75975
2161.020, 61.32235
2162.949, 63.96677
2164.877, 63.86300
2166.806, 64.37452
2168.734, 65.40514
2170.663, 64.48599
2172.591, 65.36673
2174.520, 66.09104
2176.448, 66.43481
2178.376, 66.69575
2180.305, 66.92657
2182.233, 67.11514
2184.162, 67.77766
2186.090, 67.73900
2188.019, 65.55486
2189.947, 63.07293
2191.876, 61.89132
2193.804, 61.83158
2195.733, 62.84882
2197.661, 64.74447
2199.590, 66.59228
2201.518, 68.43844
2203.447, 68.04061
2205.375, 64.62207
2207.303, 63.51070
2209.232, 66.62599
2211.160, 68.53957
2213.089, 67.07297
2215.017, 65.26603
2216.946, 64.07870
2218.874, 63.29321
2220.803, 62.89053
2222.731, 62.70837
2224.660, 62.26923
2226.588, 62.06665
2228.517, 63.66325
2230.445, 63.49820
2232.374, 64.00460
2234.302, 65.13244
2236.230, 64.80774
2238.159, 66.54492
2240.087, 67.43174
2242.016, 66.87263
2243.944, 66.08234
2245.873, 65.13029
2247.801, 64.36501
2249.730, 63.73346
2251.658, 63.53467
2253.587, 64.33553
2255.515, 65.22423
2257.444, 65.18918
2259.372, 65.93825
2261.301, 65.51339
2263.229, 66.62480
2265.157, 67.17825
2267.086, 67.20906
2269.014, 66.83743
2270.943, 66.06615
2272.871, 65.49109
2274.800, 65.08101
2276.728, 63.05214
2278.657, 65.82847
2280.585, 67.42381
2282.514, 67.90170
2284.442, 63.91505
2286.371, 65.69343
2288.299, 65.16142
2290.228, 64.53471
2292.156, 67.12442
2294.084, 63.78713
2296.013, 66.32588
2297.941, 66.51900
2299.870, 67.78568
2301.798, 66.72771
2303.727, 66.38779
2305.655, 68.37316
2307.584, 69.07101
2309.512, 67.74545
2311.441, 69.08037
2313.369, 65.66187
2315.298, 66.41457
2317.226, 68.96689
2319.155, 67.75824
2321.083, 69.13562
2323.011, 69.52808
2324.940, 65.44455
2326.868, 69.14525
2328.797, 69.47955
2330.725, 66.35721
2332.654, 69.79123
2334.582, 67.14542
2336.511, 66.66975
2338.439, 67.82720
2340.368, 67.28220
2342.296, 69.42133
2344.225, 68.97465
2346.153, 68.29688
2348.082, 68.62740
2350.010, 66.10081
2351.938, 68.87466
2353.867, 68.02791
2355.795, 68.98086
2357.724, 70.34179
2359.652, 68.57912
2361.581, 70.12333
2363.509, 66.53936
2365.438, 67.24634
2367.366, 67.49122
2369.295, 70.47880
2371.223, 66.91982
2373.152, 70.42620
2375.080, 71.07826
2377.009, 71.44807
2378.937, 71.91634
2380.865, 72.17075
2382.794, 71.81326
2384.722, 71.07613
2386.651, 69.96731
2388.579, 68.89648
2390.508, 69.18156
2392.436, 70.42664
2394.365, 70.35595
2396.293, 69.44032
2398.222, 72.87147
2400.150, 72.61172
2402.079, 72.59729
2404.007, 76.09635
2405.936, 72.83008
2407.864, 76.73568
2409.792, 79.28474
2411.721, 79.23433
2413.649, 79.56238
2415.578, 80.97890
2417.506, 82.54471
2419.435, 84.31656
2421.363, 85.53716
2423.292, 85.11723
2425.220, 85.07089
2427.149, 86.70823
2429.077, 88.89478
2431.006, 90.36375
2432.934, 92.42105
2434.863, 97.13729
2436.791, 102.5061
2438.719, 106.2995
2440.648, 108.7786
2442.576, 110.1428
2444.505, 110.6869
2446.433, 111.2463
2448.362, 111.7001
2450.290, 111.2046
2452.219, 111.0507
2454.147, 110.6120
2456.076, 109.5593
2458.004, 109.1327
2459.933, 107.8529
2461.861, 106.5518
2463.790, 105.3364
2465.718, 103.9431
2467.646, 102.2044
2469.575, 100.5789
2471.503, 99.10474
2473.432, 97.76102
2475.360, 96.52162
2477.289, 95.53034
2479.217, 95.12965
2481.146, 94.31532
2483.074, 91.81149
2485.003, 90.16970
2486.931, 91.54890
2488.860, 92.73895
2490.788, 91.78376
2492.717, 90.21114
2494.645, 88.89027
2496.573, 87.63332
2498.502, 85.62630
2500.430, 84.28613
2502.359, 85.78349
2504.287, 88.05887
2506.216, 88.56751
2508.144, 87.94322
2510.073, 86.77465
2512.001, 85.56152
2513.930, 85.99247
2515.858, 84.85956
2517.787, 84.50496
2519.715, 84.27513
2521.644, 83.62825
2523.572, 84.34084
2525.500, 84.20187
2527.429, 83.19453
2529.357, 81.94327
2531.286, 80.19994
2533.214, 80.31633
2535.143, 82.44753
2537.071, 84.26475
2539.000, 85.67425
2540.928, 85.91415
2542.857, 84.69605
2544.785, 83.18392
2546.714, 80.29430
2548.642, 79.57339
2550.571, 82.47507
2552.499, 84.03327
2554.427, 83.18306
2556.356, 82.40148
2558.284, 81.89975
2560.213, 82.42721
2562.141, 85.19058
2564.070, 87.41250
2565.998, 88.59103
2567.927, 88.77041
2569.855, 87.00552
2571.784, 85.71565
2573.712, 85.31375
2575.641, 86.23122
2577.569, 90.39370
2579.498, 93.51086
2581.426, 91.99922
2583.354, 90.56410
2585.283, 92.58147
2587.211, 94.98244
2589.140, 95.52270
2591.068, 95.96140
2592.997, 97.49249
2594.925, 99.46519
2596.854, 101.6055
2598.782, 103.6155
2600.711, 105.4226
2602.639, 106.6857
2604.568, 106.1808
2606.496, 105.7082
2608.425, 107.9028
2610.353, 110.9614
2612.281, 112.8823
2614.210, 114.1667
2616.138, 115.0545
2618.067, 116.1380
2619.995, 118.3376
2621.924, 121.4755
2623.852, 125.9083
2625.781, 130.5986
2627.709, 132.7398
2629.638, 133.9914
2631.566, 137.8980
2633.495, 143.6788
2635.423, 149.4971
2637.352, 155.3976
2639.280, 161.2086
2641.208, 167.3212
2643.137, 175.1889
2645.065, 184.5006
2646.994, 194.5450
2648.922, 205.0065
2650.851, 214.2672
2652.779, 222.6920
2654.708, 232.0298
2656.636, 242.4051
2658.565, 255.2895
2660.493, 264.9622
2662.422, 280.3276
2664.350, 287.8277
2666.279, 298.7888
2668.207, 312.6909
2670.135, 323.5378
2672.064, 331.6192
2673.992, 339.1842
2675.921, 346.7127
2677.849, 357.5541
2679.778, 371.5117
2681.706, 383.9273
2683.635, 394.8575
2685.563, 406.0211
2687.492, 417.4280
2689.420, 430.0555
2691.349, 443.5383
2693.277, 455.0143
2695.206, 464.4600
2697.134, 474.5936
2699.063, 485.4658
2700.991, 498.2157
2702.919, 512.9286
2704.848, 530.3127
2706.776, 550.2333
2708.705, 571.3566
2710.633, 593.5483
2712.562, 615.2635
2714.490, 636.3609
2716.419, 652.3409
2718.347, 663.0313
2720.276, 666.9814
2722.204, 664.2150
2724.133, 654.6208
2726.061, 641.1291
2727.990, 618.8848
2729.918, 595.8287
2731.846, 565.4747
2733.775, 528.9174
2735.703, 495.7928
2737.632, 465.8042
2739.560, 436.0582
2741.489, 406.8295
2743.417, 379.8691
2745.346, 355.0054
2747.274, 330.0886
2749.203, 305.5345
2751.131, 282.4706
2753.060, 261.2833
2754.988, 243.8714
2756.917, 225.9833
2758.845, 210.6721
2760.773, 197.0036
2762.702, 184.1491
2764.630, 173.9807
2766.559, 164.0428
2768.487, 154.9313
2770.416, 148.5633
2772.344, 144.2527
2774.273, 140.9593
2776.201, 137.9192
2778.130, 132.5561
2780.058, 129.6530
2781.987, 123.7674
2783.915, 122.2937
2785.844, 119.0330
2787.772, 115.3067
2789.700, 113.8589
2791.629, 112.9334
2793.557, 109.1442
2795.486, 105.0631
2797.414, 103.9623
2799.343, 104.1261
2801.271, 104.0724
2803.200, 103.5680
2805.128, 101.8384
2807.057, 100.1518
2808.985, 99.71864
2810.914, 99.67738
2812.842, 99.66939
2814.771, 99.30216
2816.699, 97.85706
2818.627, 96.51675
2820.556, 96.19289
2822.484, 95.87534
2824.413, 95.00281
2826.341, 93.89059
2828.270, 92.24490
2830.198, 91.10213
2832.127, 91.32640
2834.055, 91.20956
2835.984, 89.22309
2837.912, 88.64165
2839.841, 92.53309
2841.769, 94.78399
2843.698, 93.36472
2845.626, 91.34740
2847.554, 88.80507
2849.483, 87.33833
2851.411, 87.91003
2853.340, 88.00355
2855.268, 86.48856
2857.197, 86.58733
2859.125, 88.93514
2861.054, 89.88432
2862.982, 88.85513
2864.911, 87.80312
2866.839, 86.67493
2868.768, 86.90520
2870.696, 88.60711
2872.625, 89.50167
2874.553, 89.51615
2876.481, 88.11369
2878.410, 88.77949
2880.338, 86.03099
2882.267, 88.73282
2884.195, 90.25426
2886.124, 90.56242
2888.052, 88.92697
2889.981, 86.35945
2891.909, 84.97694
2893.838, 84.45257
2895.766, 84.20456
2897.695, 84.33761
2899.623, 85.48240
2901.552, 86.56783
2903.480, 86.13059
2905.408, 85.35410
2907.337, 85.75146
2909.265, 85.81173
2911.194, 83.57740
2913.122, 82.03162
2915.051, 83.95022
2916.979, 85.57128
2918.908, 84.75095
2920.836, 83.70621
2922.765, 82.89567
2924.693, 82.51791
2926.622, 82.83974
2928.550, 83.10529
2930.479, 82.95714
2932.407, 83.16696
2934.335, 83.27148
2936.264, 83.40463
2938.192, 83.73264
2940.121, 83.67895
2942.049, 83.67725
2943.978, 84.20840
2945.906, 83.36619
2947.835, 83.57252
2949.763, 83.29103
2951.692, 84.42879
2953.620, 83.47839
2955.549, 83.84306
2957.477, 84.65700
2959.406, 82.78051
2961.334, 80.26242
2963.262, 80.40561
2965.191, 81.86646
2967.119, 83.83121
2969.048, 85.11767
2970.976, 83.38233
2972.905, 82.17498
2974.833, 85.76034
2976.762, 87.78497
2978.690, 81.96357
2980.619, 78.63078
2982.547, 82.51868
2984.476, 85.51099
2986.404, 84.82127
2988.333, 83.96702
2990.261, 83.46535
2992.189, 83.29205
2994.118, 83.45484
2996.046, 83.95988
2997.975, 84.18936
2999.903, 85.30851
3001.832, 85.34077
3003.760, 86.07118
3005.689, 87.09245
3007.617, 85.52563
3009.546, 86.04684
3011.474, 83.19755
3013.403, 84.83810
3015.331, 83.44750
3017.260, 81.89653
3019.188, 84.15773
3021.116, 87.00859
3023.045, 88.54723
3024.973, 88.47751
3026.902, 85.07214
3028.830, 82.54787
3030.759, 82.85805
3032.687, 83.33121
3034.616, 83.00074
3036.544, 82.83568
3038.473, 82.69241
3040.401, 84.08887
3042.330, 87.44822
3044.258, 89.62838
3046.187, 90.47723
3048.115, 88.54713
3050.043, 84.51777
3051.972, 83.70508
3053.900, 84.97184
3055.829, 84.66270
3057.757, 83.83622
3059.686, 84.89177
3061.614, 86.19209
3063.543, 86.11069
3065.471, 85.15405
3067.400, 82.32284
3069.328, 80.89010
3071.257, 83.59986
3073.185, 86.03135
3075.114, 86.71971
3077.042, 87.14233
3078.970, 88.10839
3080.899, 87.65842
3082.827, 85.48955
3084.756, 84.22414
3086.684, 84.09128
3088.613, 84.74119
3090.541, 86.03459
3092.470, 87.39763
3094.398, 88.36130
3096.327, 87.15493
3098.255, 85.22124
3100.184, 84.95258
3102.112, 84.84944
3104.041, 82.43781
3105.969, 80.96610
3107.897, 83.10978
3109.826, 85.52438
3111.754, 87.57718
3113.683, 87.97581
3115.611, 88.86295
3117.540, 88.65883
3119.468, 87.81583
3121.397, 87.85339
3123.325, 87.89294
3125.254, 85.54032
3127.182, 88.51334
3129.111, 90.54337
3131.039, 91.19962
3132.968, 87.88956
3134.896, 84.23386
3136.824, 85.97768
3138.753, 88.59222
3140.681, 87.82973
3142.610, 87.71974
3144.538, 91.74398
3146.467, 93.58155
3148.395, 90.30794
3150.324, 88.41396
3152.252, 90.34286
3154.181, 89.82784
3156.109, 86.82987
3158.038, 85.87287
3159.966, 86.93330
3161.895, 88.79753
3163.823, 90.86767
3165.751, 91.35337
3167.680, 91.18861
3169.608, 91.31410
3171.537, 91.65002
3173.465, 92.15519
3175.394, 92.83520
3177.322, 93.91080
3179.251, 94.60595
3181.179, 94.61687
3183.108, 94.43644
3185.036, 94.20817
3186.965, 92.16828
3188.893, 92.63487
3190.822, 88.84496
3192.750, 91.66901
3194.678, 90.70728
3196.607, 88.65026
3198.535, 90.27751
3200.464, 92.31511
3202.392, 90.88930
3204.321, 90.02445
3206.249, 92.06370
3208.178, 93.94044
3210.106, 94.64041
3212.035, 94.83079
3213.963, 94.46951
3215.892, 93.89013
3217.820, 93.36910
3219.749, 96.69524
3221.677, 102.6799
3223.605, 107.1233
3225.534, 110.6348
3227.462, 114.3979
3229.391, 117.4882
3231.319, 118.5754
3233.248, 119.3754
3235.176, 119.2083
3237.105, 122.6813
3239.033, 134.1726
3240.962, 142.6593
3242.890, 147.5618
3244.819, 152.7780
3246.747, 157.9367
3248.676, 159.8381
3250.604, 158.5405
3252.532, 153.0923
3254.461, 145.6386
3256.389, 137.6689
3258.318, 129.9853
3260.246, 122.4393
3262.175, 116.7900
3264.103, 114.2986
3266.032, 110.7371
3267.960, 104.8091
3269.889, 98.72909
3271.817, 92.91401
3273.746, 93.16919
3275.674, 96.62113
3277.603, 94.96477
3279.531, 91.88863
3281.459, 92.40832
3283.388, 93.41568
3285.316, 92.89497
3287.245, 92.36712
3289.173, 92.26974
3291.102, 92.31636
3293.030, 92.51507
3294.959, 92.48034
3296.887, 92.16592
3298.816, 90.31178
3300.744, 87.93187
3302.673, 86.94005
3304.601, 87.30441
3306.530, 90.24751
3308.458, 92.58471
3310.386, 92.45602
3312.315, 91.63883
3314.243, 89.95019
3316.172, 89.63533
3318.100, 89.42209
3320.029, 90.93599
3321.957, 90.15673
3323.886, 90.80075
3325.814, 91.95946
3327.743, 91.62540
3329.671, 91.35556
3331.600, 93.18706
3333.528, 94.24496
3335.457, 93.49829
3337.385, 91.77266
3339.313, 88.21436
3341.242, 87.84774
3343.170, 90.48038
3345.099, 93.44278
3347.027, 95.60165
3348.956, 93.04000
3350.884, 89.81021
3352.813, 90.82706
3354.741, 92.31784
3356.670, 92.64310
3358.598, 92.16006
3360.527, 90.65868
3362.455, 90.33973
3364.384, 91.39737
3366.312, 91.29217
3368.240, 90.48282
3370.169, 90.47549
3372.097, 91.03996
3374.026, 92.69317
3375.954, 93.50320
3377.883, 91.75552
3379.811, 90.65801
3381.740, 91.51633
3383.668, 90.90081
3385.597, 91.79840
3387.525, 89.99193
3389.454, 93.69034
3391.382, 96.14507
3393.311, 96.94244
3395.239, 94.27446
3397.167, 91.78407
3399.096, 91.37554
3401.024, 91.76975
3402.953, 93.01612
3404.881, 92.84068
3406.810, 91.19151
3408.738, 90.71206
3410.667, 91.21407
3412.595, 92.72234
3414.524, 94.19045
3416.452, 94.97224
3418.381, 94.64230
3420.309, 95.21690
3422.238, 91.74297
3424.166, 94.39663
3426.094, 94.63161
3428.023, 92.88570
3429.951, 94.39351
3431.880, 92.90038
3433.808, 94.19027
3435.737, 91.32829
3437.665, 90.39639
3439.594, 90.17149
3441.522, 90.51627
3443.451, 90.88284
3445.379, 91.26772
3447.308, 92.21903
3449.236, 93.28218
3451.165, 92.54877
3453.093, 91.78952
3455.021, 92.63027
3456.950, 94.46194
3458.878, 98.80188
3460.807, 99.63400
3462.735, 96.06997
3464.664, 94.08784
3466.592, 93.82396
3468.521, 94.95557
3470.449, 96.05419
3472.378, 94.78703
3474.306, 93.33241
3476.235, 92.76176
3478.163, 93.21113
3480.092, 95.02592
3482.020, 95.81019
3483.948, 95.48787
3485.877, 94.55510
3487.805, 93.98771
3489.734, 96.18369
3491.662, 98.49568
3493.591, 99.51827
3495.519, 98.83847
3497.448, 99.49339
3499.376, 94.38490
3501.305, 97.63216
3503.233, 96.22800
3505.162, 93.16444
3507.090, 95.79449
3509.019, 98.89739
3510.947, 98.96388
3512.875, 97.55653
3514.804, 98.74976
3516.732, 98.51070
3518.661, 97.81246
3520.589, 98.54914
3522.518, 97.10349
3524.446, 95.42383
3526.375, 94.21175
3528.303, 93.36272
3530.232, 94.76632
3532.160, 99.68008
3534.089, 101.7147
3536.017, 100.2991
3537.946, 97.15770
3539.874, 94.29054
3541.802, 96.85825
3543.731, 99.91877
3545.659, 100.1463
3547.588, 99.02303
3549.516, 100.2332
3551.445, 96.56947
3553.373, 99.08361
3555.302, 97.26436
3557.230, 94.55334
3559.159, 96.56013
3561.087, 99.13752
3563.016, 100.3212
3564.944, 100.1891
3566.873, 98.31637
3568.801, 97.39224
3570.729, 97.21281
3572.658, 96.17233
3574.586, 95.78258
3576.515, 96.10040
3578.443, 95.91676
3580.372, 97.97395
3582.300, 97.15334
3584.229, 100.0956
3586.157, 102.2072
3588.086, 103.2420
3590.014, 102.7966
3591.943, 101.1820
3593.871, 97.50309
3595.800, 95.76359
3597.728, 98.69192
3599.656, 100.1710
3601.585, 100.4290
3603.513, 101.1214
3605.442, 101.9018
3607.370, 102.2625
3609.299, 102.3703
3611.227, 103.0210
3613.156, 101.1921
3615.084, 96.61115
3617.013, 95.52818
3618.941, 97.05711
3620.870, 99.25721
3622.798, 101.1028
3624.727, 101.4826
3626.655, 102.1286
3628.583, 103.8481
3630.512, 103.5517
3632.440, 101.6175
3634.369, 101.4859
3636.297, 101.8560
3638.226, 100.6173
3640.154, 100.0178
3642.083, 101.5710
3644.011, 103.0629
3645.940, 104.3551
3647.868, 105.2175
3649.797, 105.8190
3651.725, 106.7711
3653.654, 107.1225
3655.582, 105.5182
3657.510, 105.1437
3659.439, 106.4541
3661.367, 104.4321
3663.296, 101.1273
3665.224, 105.0650
3667.153, 108.4462
3669.081, 102.5559
3671.010, 99.74142
3672.938, 102.7916
3674.867, 105.0969
3676.795, 106.1816
3678.724, 105.8798
3680.652, 104.8989
3682.581, 103.3288
3684.509, 102.7996
3686.438, 103.9845
3688.366, 105.4468
3690.294, 106.4653
3692.223, 101.5077
3694.151, 96.23972
3696.080, 97.98794
3698.008, 100.9646
3699.937, 103.6735
3701.865, 103.7738
3703.794, 101.4733
3705.722, 101.2134
3707.651, 102.2039
3709.579, 103.8495
3711.508, 105.0865
3713.436, 105.4522
3715.365, 105.0561
3717.293, 105.4993
3719.221, 104.3995
3721.150, 105.1413
3723.078, 104.7185
3725.007, 104.2583
3726.935, 104.1693
3728.864, 104.4776
3730.792, 105.1858
3732.721, 106.5524
3734.649, 107.6506
3736.578, 106.7397
3738.506, 105.7013
3740.435, 105.2897
3742.363, 105.3072
3744.292, 105.7135
3746.220, 106.1438
3748.148, 106.6260
3750.077, 106.8132
3752.005, 107.9351
3753.934, 107.4120
3755.862, 111.5005
3757.791, 106.9890
3759.719, 104.7986
3761.648, 105.0923
3763.576, 109.8922
3765.505, 112.6634
3767.433, 110.4384
3769.362, 107.4881
3771.290, 104.5872
3773.219, 104.4921
3775.147, 105.5132
3777.075, 106.0878
3779.004, 106.8750
3780.932, 108.2169
3782.861, 108.8957
3784.789, 108.7980
3786.718, 107.2862
3788.646, 105.8955
3790.575, 105.5743
3792.503, 106.2238
3794.432, 107.9182
3796.360, 109.1407
3798.289, 109.6097
3800.217, 108.9245
3802.146, 106.9077
3804.074, 102.3741
3806.002, 100.9801
3807.931, 103.0777
3809.859, 104.8215
3811.788, 105.9402
3813.716, 107.4678
3815.645, 108.8509
3817.573, 109.2074
3819.502, 109.9010
3821.430, 110.5709
3823.359, 109.9240
3825.287, 109.1661
3827.216, 108.3845
3829.144, 107.9182
3831.073, 107.9579
3833.001, 106.8028
3834.929, 105.5429
3836.858, 107.5188
3838.786, 109.4881
3840.715, 109.9016
3842.643, 108.1510
3844.572, 104.3834
3846.500, 103.4975
3848.429, 104.8855
3850.357, 109.2102
3852.286, 111.6064
3854.214, 110.4227
3856.143, 111.6061
3858.071, 114.2585
3860.000, 113.3706
3861.928, 111.5325
3863.856, 110.2101
3865.785, 109.5646
3867.713, 109.6070
3869.642, 110.6020
3871.570, 111.4161
3873.499, 111.3680
3875.427, 112.1402
3877.356, 111.3289
3879.284, 112.4896
3881.213, 112.1762
3883.141, 111.3799
3885.070, 110.8970
3886.998, 110.9533
3888.927, 111.5307
3890.855, 112.9837
3892.783, 110.7420
3894.712, 108.2381
3896.640, 112.6252
3898.569, 116.2857
3900.497, 116.4703
3902.426, 113.2987
3904.354, 109.4490
3906.283, 111.6588
3908.211, 114.0921
3910.140, 113.9479
3912.068, 115.6345
3913.997, 115.7824
3915.925, 117.9835
3917.854, 115.5167
3919.782, 116.4020
3921.710, 115.7609
3923.639, 113.2709
3925.567, 114.1010
3927.496, 116.6572
3929.424, 117.1940
3931.353, 116.7725
3933.281, 117.8452
3935.210, 117.4692
3937.138, 115.2756
3939.067, 114.9366
3940.995, 115.7736
3942.924, 117.7958
3944.852, 118.4000
3946.781, 117.5064
3948.709, 117.9640
3950.637, 119.0091
3952.566, 119.5696
3954.494, 119.5012
3956.423, 119.8917
3958.351, 119.0374
3960.280, 119.1790
3962.208, 118.2039
3964.137, 118.9677
3966.065, 117.6299
3967.994, 117.8213
3969.922, 119.5045
3971.851, 117.9341
3973.779, 117.3718
3975.708, 119.9716
3977.636, 119.4447
3979.564, 118.4439
3981.493, 119.8979
3983.421, 120.7047
3985.350, 121.3015
3987.278, 121.3930
3989.207, 121.8166
3991.135, 123.7974
3993.064, 123.7984
3994.992, 123.9328
3996.921, 121.6904
3998.849, 123.4034
4000.778, 121.8390
4002.706, 121.6747
4004.635, 124.0765
4006.563, 124.4901
4008.491, 121.9732
4010.420, 123.5901
4012.348, 126.6253
4014.277, 125.5139
4016.205, 123.6954
4018.134, 122.9042
4020.062, 123.5762
4021.991, 124.0333
4023.919, 125.0560
4025.848, 126.4936
4027.776, 128.2865
4029.705, 129.3027
4031.633, 128.8065
4033.562, 129.4305
4035.490, 128.8757
4037.418, 124.9655
4039.347, 124.5329
4041.275, 126.6420
4043.204, 128.0277
4045.132, 128.4939
4047.061, 128.4967
4048.989, 129.2300
4050.918, 129.6085
4052.846, 128.1135
4054.775, 127.1922
4056.703, 127.6887
4058.632, 128.7765
4060.560, 129.9703
4062.489, 131.4914
4064.417, 131.7681
4066.345, 132.1942
4068.274, 132.8499
4070.202, 131.7634
4072.131, 132.6306
4074.059, 131.8445
4075.988, 132.2790
4077.916, 130.0098
4079.845, 132.9469
4081.773, 134.2240
4083.702, 134.2653
4085.630, 132.5442
4087.559, 132.2134
4089.487, 133.6676
4091.416, 134.5018
4093.344, 134.6599
4095.272, 133.6894
4097.201, 132.8947
4099.129, 132.4710
4101.058, 134.4557
4102.986, 136.5469
4104.915, 135.4003
4106.843, 134.7992
4108.772, 135.2847
4110.700, 133.6144
4112.629, 132.1933
4114.557, 133.2682
4116.486, 134.6020
4118.414, 135.8151
4120.343, 136.9765
4122.271, 137.7767
4124.200, 138.0709
4126.128, 135.9158
4128.057, 137.5667
4129.985, 136.8411
4131.914, 135.3015
4133.842, 137.0904
4135.771, 139.1504
4137.699, 139.7718
4139.627, 139.9623
4141.556, 139.3708
4143.484, 140.2884
4145.413, 138.0685
4147.341, 140.8679
4149.270, 142.1214
4151.198, 141.2396
4153.126, 140.7206
4155.055, 141.2652
4156.983, 141.2168
4158.912, 140.8147
4160.840, 141.4187
4162.769, 143.6011
4164.697, 145.0862
4166.626, 144.9717
4168.554, 145.4659
4170.483, 146.8095
4172.411, 148.0141
4174.340, 148.2767
4176.268, 146.3195
4178.197, 148.1669
4180.125, 151.6514
4182.054, 148.9699
4183.982, 148.4445
4185.911, 153.1233
4187.839, 152.4658
4189.768, 151.3034
4191.696, 156.3223
4193.625, 160.1320
4195.553, 161.0619
4197.481, 160.0830
4199.410, 159.3323
4201.338, 162.8020
4203.267, 165.4195
4205.195, 165.6541
4207.124, 165.7711
4209.052, 165.2267
4210.980, 163.4133
4212.909, 164.2449
4214.837, 167.3233
4216.766, 166.0027
4218.694, 164.9893
4220.623, 170.1751
4222.551, 172.2923
4224.480, 171.6830
4226.408, 175.7280
4228.337, 179.5712
4230.265, 179.1589
4232.194, 179.8012
4234.122, 181.1972
4236.051, 180.3661
4237.979, 180.2623
4239.908, 182.4419
4241.836, 186.2546
4243.765, 189.9156
4245.693, 188.6103
4247.622, 189.0875
4249.550, 193.6829
4251.479, 198.2017
4253.407, 200.9458
4255.335, 198.2224
4257.264, 197.9297
4259.192, 201.4810
4261.121, 205.8035
4263.049, 208.9547
4264.978, 208.9026
4266.906, 207.2078
4268.834, 205.2656
4270.763, 210.2778
4272.691, 215.7970
4274.620, 217.4905
4276.548, 219.5737
4278.477, 221.9586
4280.405, 223.2622
4282.334, 223.7499
4284.262, 223.3673
4286.191, 225.2534
4288.119, 228.0383
4290.048, 228.8040
4291.976, 230.8709
4293.905, 231.7564
4295.833, 231.8257
4297.762, 233.0037
4299.690, 231.8090
4301.619, 231.9058
4303.547, 232.6858
4305.476, 230.0410
4307.404, 228.8557
4309.333, 227.6586
4311.261, 224.0315
4313.189, 224.4934
4315.118, 219.3001
4317.046, 217.5548
4318.975, 219.9936
4320.903, 218.9908
4322.832, 216.4397
4324.760, 215.1242
4326.688, 213.0158
4328.617, 209.6819
4330.545, 207.8291
4332.474, 204.4382
4334.402, 201.3839
4336.331, 198.4451
4338.259, 195.1221
4340.188, 192.0226
4342.116, 188.3810
4344.045, 185.7355
4345.973, 181.6900
4347.902, 178.8194
4349.830, 181.9290
4351.759, 183.0682
4353.687, 181.4520
4355.616, 178.6179
4357.544, 175.5408
4359.473, 172.4650
4361.401, 171.3214
4363.330, 171.3074
4365.258, 170.4334
4367.187, 171.1780
4369.115, 169.7877
4371.043, 168.9129
4372.972, 167.6091
4374.900, 166.4555
4376.829, 165.5965
4378.757, 164.8418
4380.686, 164.0962
4382.614, 165.4113
4384.542, 169.4440
4386.471, 168.9422
4388.399, 165.9769
4390.328, 161.8583
4392.256, 161.7849
4394.185, 164.9309
4396.113, 164.9563
4398.042, 164.0280
4399.970, 163.2260
4401.899, 162.0182
4403.827, 161.4989
4405.756, 164.7996
4407.684, 164.5113
4409.613, 160.3722
4411.541, 166.2346
4413.470, 170.2937
4415.398, 161.9144
4417.327, 162.5141
4419.255, 167.4174
4421.184, 165.6669
4423.112, 165.2046
4425.041, 167.5901
4426.969, 166.8982
4428.897, 166.4391
4430.826, 168.6854
4432.754, 167.6303
4434.683, 165.5525
4436.611, 168.8821
4438.540, 170.2235
4440.468, 168.4814
4442.396, 168.2644
4444.325, 167.8230
4446.253, 165.7485
4448.182, 163.0698
4450.110, 161.1594
4452.039, 161.9465
4453.967, 166.4959
4455.896, 174.2414
4457.824, 172.6467
4459.753, 168.3091
4461.681, 164.5559
4463.610, 164.8486
4465.538, 166.9825
4467.467, 167.4273
4469.395, 166.8692
4471.324, 165.8013
4473.252, 166.3450
4475.181, 167.9818
4477.109, 170.5963
4479.038, 169.7466
4480.966, 168.0651
4482.895, 170.1736
4484.823, 169.4409
4486.751, 166.4132
4488.680, 167.8734
4490.608, 169.5242
4492.537, 169.6130
4494.465, 167.7872
4496.394, 165.9474
4498.322, 166.1986
4500.250, 165.7001
4502.179, 164.8945
4504.107, 166.4731
4506.036, 166.1966
4507.964, 163.8559
4509.893, 169.1162
4511.821, 173.1167
4513.750, 168.8908
4515.678, 165.9611
4517.607, 165.5749
4519.535, 165.2342
4521.464, 171.9241
4523.392, 167.3835
4525.321, 168.3767
4527.249, 168.1967
4529.178, 164.1955
4531.106, 164.6416
4533.035, 167.0711
4534.963, 169.5408
4536.892, 170.7637
4538.820, 170.9655
4540.749, 170.6112
4542.677, 170.2583
4544.605, 170.1458
4546.534, 171.5864
4548.462, 172.8154
4550.391, 173.0005
4552.319, 171.9304
4554.248, 169.9815
4556.176, 170.8457
4558.104, 167.6266
4560.033, 170.9731
4561.961, 172.1387
4563.890, 170.9775
4565.818, 168.0915
4567.747, 167.3199
4569.675, 168.7527
4571.604, 173.6210
4573.532, 173.8169
4575.461, 172.2280
4577.389, 171.5503
4579.318, 172.3211
4581.246, 173.6531
4583.175, 173.8901
4585.103, 172.7318
4587.032, 170.3702
4588.960, 167.4293
4590.889, 165.4346
4592.817, 164.8538
4594.746, 169.8280
4596.674, 174.2639
4598.603, 172.1788
4600.531, 173.0933
4602.459, 175.3455
4604.388, 174.7178
4606.316, 174.6166
4608.245, 174.7614
4610.173, 171.2919
4612.102, 169.6787
4614.030, 171.6973
4615.958, 172.3451
4617.887, 171.7928
4619.815, 169.8980
4621.744, 171.3699
4623.672, 172.2622
4625.601, 166.8387
4627.529, 166.5815
4629.458, 170.4532
4631.386, 175.4130
4633.315, 177.3707
4635.243, 176.0942
4637.172, 173.0083
4639.100, 172.1900
4641.029, 174.5315
4642.957, 173.4002
4644.886, 171.0744
4646.814, 168.7617
4648.743, 168.8622
4650.671, 170.5512
4652.600, 173.7260
4654.528, 174.7845
4656.457, 173.9059
4658.385, 170.1705
4660.313, 173.3921
4662.242, 169.6179
4664.170, 171.9801
4666.099, 167.3276
4668.027, 170.6077
4669.956, 174.2543
4671.884, 176.4067
4673.813, 176.1849
4675.741, 173.7882
4677.669, 171.8950
4679.598, 172.4047
4681.526, 172.5719
4683.455, 172.5605
4685.383, 172.5052
4687.312, 174.1690
4689.240, 175.9827
4691.169, 174.0830
4693.097, 173.7461
4695.026, 174.7975
4696.954, 174.2978
4698.883, 172.3701
4700.811, 169.8195
4702.740, 172.6734
4704.668, 174.5406
4706.597, 173.0181
4708.525, 175.1077
4710.454, 175.4432
4712.382, 170.9661
4714.311, 169.5777
4716.239, 170.4171
4718.167, 172.8502
4720.096, 175.3194
4722.024, 177.2749
4723.953, 178.7748
4725.881, 173.5142
4727.810, 176.4548
4729.738, 172.4670
4731.667, 176.1462
4733.595, 176.6137
4735.523, 173.7879
4737.452, 172.9776
4739.380, 174.2859
4741.309, 171.7105
4743.237, 172.6133
4745.166, 178.3347
4747.094, 179.8727
4749.023, 178.4209
4750.951, 174.5579
4752.880, 175.7104
4754.808, 177.5640
4756.737, 177.8345
4758.665, 178.1358
4760.594, 177.3684
4762.522, 174.1209
4764.451, 171.6312
4766.379, 171.7298
4768.308, 176.6466
4770.236, 178.3936
4772.165, 178.5266
4774.093, 180.1322
4776.021, 181.1114
4777.950, 180.5666
4779.878, 176.4390
4781.807, 175.1804
4783.735, 176.0642
4785.664, 175.9239
4787.592, 175.9132
4789.521, 176.1691
4791.449, 176.7642
4793.377, 176.8728
4795.306, 176.5482
4797.234, 176.4622
4799.163, 176.1095
4801.091, 175.8422
4803.020, 176.7278
4804.948, 176.8016
4806.877, 178.4685
4808.805, 177.9937
4810.734, 178.2496
4812.662, 178.9210
4814.591, 181.8732
4816.519, 183.7143
4818.448, 183.0244
4820.376, 183.0021
4822.305, 174.2893
4824.233, 179.8152
4826.162, 176.6257
4828.090, 174.7732
4830.019, 179.3546
4831.947, 180.6684
4833.875, 180.6829
4835.804, 180.8726
4837.732, 177.2959
4839.661, 174.6252
4841.589, 175.9561
4843.518, 177.1638
4845.446, 176.5620
4847.375, 172.4640
4849.303, 173.0772
4851.231, 176.3118
4853.160, 180.6880
4855.088, 180.5057
4857.017, 179.2287
4858.945, 179.7313
4860.874, 182.6397
4862.802, 182.8456
4864.731, 175.5125
4866.659, 176.1538
4868.588, 180.1346
4870.516, 183.3041
4872.445, 183.8486
4874.373, 182.1529
4876.302, 178.3670
4878.230, 176.2481
4880.159, 174.9189
4882.087, 172.0385
4884.016, 177.0111
4885.944, 182.2403
4887.873, 181.0314
4889.801, 180.2075
4891.729, 179.2473
4893.658, 175.8083
4895.586, 180.3488
4897.515, 183.9705
4899.443, 179.3941
4901.372, 179.3640
4903.300, 180.0205
4905.229, 176.7238
4907.157, 178.6346
4909.085, 181.2274
4911.014, 181.2886
4912.942, 182.0512
4914.871, 179.7450
4916.799, 180.8221
4918.728, 178.6297
4920.656, 175.9772
4922.585, 174.5601
4924.513, 176.1646
4926.442, 178.4429
4928.370, 180.0777
4930.299, 183.8084
4932.227, 184.4536
4934.156, 179.2628
4936.084, 175.5208
4938.013, 177.1358
4939.941, 184.2730
4941.870, 183.6286
4943.798, 178.7824
4945.727, 172.2022
4947.655, 176.1856
4949.583, 179.3230
4951.512, 178.9315
4953.440, 179.1671
4955.369, 182.0638
4957.297, 180.0415
4959.226, 181.7492
4961.154, 178.4343
4963.083, 178.0899
4965.011, 178.6815
4966.939, 178.5925
4968.868, 179.1307
4970.796, 177.8636
4972.725, 185.3789
4974.653, 177.8194
4976.582, 177.0299
4978.510, 183.0079
4980.439, 189.3579
4982.367, 187.1335
4984.296, 179.9837
4986.224, 175.5389
4988.153, 182.9380
4990.081, 182.8445
4992.010, 180.7385
4993.938, 183.5102
4995.867, 179.8646
4997.795, 176.9531
4999.724, 179.7876
5001.652, 180.5255
5003.581, 180.8412
5005.509, 181.6603
5007.438, 182.8382
5009.366, 182.9968
5011.294, 181.9593
5013.223, 184.1552
5015.151, 183.5023
5017.080, 180.8247
5019.008, 187.3670
5020.937, 188.1551
5022.865, 183.5792
5024.793, 182.4435
5026.722, 183.3148
5028.650, 184.4161
5030.579, 182.9617
5032.507, 182.8853
5034.436, 183.7254
5036.364, 184.2207
5038.293, 187.0014
5040.221, 188.2527
5042.150, 185.0027
5044.078, 187.4978
5046.007, 186.7949
5047.935, 187.5211
5049.864, 187.1211
5051.792, 185.0650
5053.721, 184.6827
5055.649, 183.5499
5057.578, 183.7407
5059.506, 184.9331
5061.435, 184.8725
5063.363, 183.7004
5065.292, 182.9766
5067.220, 187.1597
5069.148, 184.4732
5071.077, 181.3343
5073.005, 186.8409
5074.934, 184.0502
5076.862, 180.2780
5078.791, 182.3271
5080.719, 184.3343
5082.647, 183.7913
5084.576, 184.8473
5086.504, 182.1162
5088.433, 183.7288
5090.361, 183.6889
5092.290, 180.8267
5094.218, 181.7298
5096.147, 184.1874
5098.075, 180.6430
5100.004, 182.3464
5101.932, 184.3694
5103.861, 179.2708
5105.789, 178.6597
5107.718, 181.1660
5109.646, 185.8985
5111.575, 182.3386
5113.503, 179.5801
5115.432, 180.4035
5117.360, 180.2219
5119.289, 184.6107
5121.217, 183.8855
5123.146, 186.9900
5125.074, 185.4495
5127.002, 186.3946
5128.931, 188.1494
5130.859, 189.2373
5132.788, 187.6596
5134.716, 188.7691
5136.645, 184.8333
5138.573, 187.3275
5140.501, 186.1540
5142.430, 182.6678
5144.358, 179.9738
5146.287, 179.6730
5148.215, 185.5813
5150.144, 186.1504
5152.072, 184.5567
5154.001, 186.3544
5155.929, 186.5905
5157.858, 187.4940
5159.786, 190.1501
5161.715, 188.9751
5163.643, 189.6695
5165.572, 192.7962
5167.500, 192.4328
5169.429, 190.2023
5171.357, 188.4661
5173.286, 191.0915
5175.214, 190.9454
5177.143, 188.6171
5179.071, 185.2518
5181.000, 183.7614
5182.928, 183.3009
5184.856, 183.5691
5186.785, 185.9848
5188.713, 188.6911
5190.642, 190.6190
5192.570, 190.2726
5194.499, 191.2141
5196.427, 191.6491
5198.355, 189.5156
5200.284, 190.1098
5202.212, 189.6859
5204.141, 190.1765
5206.069, 190.5729
5207.998, 192.9872
5209.926, 195.7705
5211.855, 190.7061
5213.783, 187.1212
5215.712, 186.5212
5217.640, 190.1159
5219.569, 192.6797
5221.497, 192.5629
5223.426, 190.1867
5225.354, 190.8106
5227.283, 192.3757
5229.211, 194.2136
5231.140, 196.5780
5233.068, 196.6815
5234.997, 193.8227
5236.925, 187.7402
5238.854, 186.9910
5240.782, 186.7226
5242.710, 186.3816
5244.639, 191.8311
5246.567, 191.8233
5248.496, 190.1794
5250.424, 195.6047
5252.353, 195.7475
5254.281, 191.6181
5256.209, 185.3460
5258.138, 187.6809
5260.066, 187.4239
5261.995, 185.5908
5263.923, 192.2513
5265.852, 192.8868
5267.780, 192.1478
5269.709, 194.9497
5271.637, 194.5486
5273.566, 191.8160
5275.494, 188.6254
5277.423, 189.6566
5279.351, 192.8307
5281.280, 195.7975
5283.208, 196.0807
5285.137, 195.5423
5287.065, 195.2231
5288.994, 195.2385
5290.922, 192.8897
5292.851, 191.9632
5294.779, 192.7619
5296.708, 195.1977
5298.636, 194.0393
5300.564, 193.5067
5302.493, 195.6462
5304.421, 188.8684
5306.350, 187.3707
5308.278, 190.2105
5310.207, 188.9975
5312.135, 191.1192
5314.063, 190.5431
5315.992, 192.6781
5317.920, 194.3040
5319.849, 197.6826
5321.777, 193.2425
5323.706, 196.2605
5325.634, 195.2569
5327.563, 194.8610
5329.491, 198.3693
5331.420, 192.9678
5333.348, 189.9954
5335.277, 191.7523
5337.205, 196.3161
5339.134, 199.3954
5341.062, 198.4977
5342.991, 192.7656
5344.919, 192.1302
5346.848, 191.1756
5348.776, 190.3626
5350.705, 194.2387
5352.633, 193.2863
5354.562, 193.4675
5356.490, 195.1953
5358.418, 193.4158
5360.347, 194.7601
5362.275, 196.9650
5364.204, 196.8428
5366.132, 198.4932
5368.061, 197.8275
5369.989, 193.5532
5371.917, 197.9297
5373.846, 196.8679
5375.774, 193.8395
5377.703, 200.2997
5379.631, 197.9218
5381.560, 194.9065
5383.488, 194.9247
5385.417, 193.3501
5387.345, 193.8710
5389.274, 195.5170
5391.202, 196.8259
5393.131, 193.2994
5395.059, 193.0372
5396.988, 196.3687
5398.916, 193.4985
5400.845, 196.9255
5402.773, 199.2888
5404.702, 194.6241
5406.630, 196.0393
5408.559, 195.7371
5410.487, 193.8774
5412.416, 195.5575
5414.344, 196.2737
5416.272, 195.8712
5418.201, 194.5661
5420.129, 192.5579
5422.058, 194.0007
5423.986, 194.9362
5425.915, 190.5823
5427.843, 192.9630
5429.771, 195.1506
5431.700, 194.6447
5433.628, 197.2533
5435.557, 194.4076
5437.485, 198.2394
5439.414, 196.9796
5441.342, 192.4866
5443.271, 191.6517
5445.199, 194.1183
5447.128, 197.5849
5449.056, 196.9772
5450.985, 196.5401
5452.913, 197.7787
5454.842, 200.3961
5456.770, 200.6037
5458.699, 197.8126
5460.627, 192.5771
5462.556, 192.9893
5464.484, 191.8603
5466.413, 190.1065
5468.341, 190.6736
5470.270, 192.9990
5472.198, 194.4877
5474.126, 193.4520
5476.055, 185.7718
5477.983, 188.4961
5479.912, 189.9012
5481.840, 184.8229
5483.769, 190.1761
5485.697, 192.1163
5487.625, 192.0572
5489.554, 193.4421
5491.482, 188.9385
5493.411, 188.2704
5495.339, 191.5688
5497.268, 195.2262
5499.196, 192.2867
5501.125, 189.1269
5503.053, 188.6744
5504.982, 190.9172
5506.910, 193.5313
5508.839, 196.1350
5510.767, 198.3723
5512.696, 198.4621
5514.624, 197.9370
5516.553, 196.6091
5518.481, 194.0980
5520.410, 195.6798
5522.338, 193.8099
5524.267, 189.8663
5526.195, 189.6892
5528.124, 190.3030
5530.052, 190.1486
5531.980, 189.2300
5533.909, 188.8455
5535.837, 188.5714
5537.766, 188.5848
5539.694, 188.9509
5541.623, 188.7265
5543.551, 193.5254
5545.479, 196.0990
5547.408, 191.5750
5549.336, 192.2105
5551.265, 197.6968
5553.193, 200.3408
5555.122, 193.3817
5557.050, 198.1317
5558.979, 196.1265
5560.907, 189.7604
5562.836, 188.4451
5564.764, 190.7330
5566.693, 194.9577
5568.621, 198.2403
5570.550, 195.1570
5572.478, 196.3531
5574.407, 194.5823
5576.335, 190.1895
5578.264, 193.0154
5580.192, 191.2370
5582.121, 190.5695
5584.049, 193.0387
5585.978, 194.0235
5587.906, 191.5995
5589.834, 191.9021
5591.763, 197.0620
5593.691, 200.7170
5595.620, 195.1146
5597.548, 193.1212
5599.477, 201.4030
5601.405, 193.3142
5603.333, 191.4927
5605.262, 193.9974
5607.190, 195.7895
5609.119, 196.1938
5611.047, 197.0691
5612.976, 193.0069
5614.904, 197.0056
5616.833, 193.7990
5618.761, 193.3244
5620.690, 193.9136
5622.618, 191.9081
5624.547, 192.8279
5626.475, 192.5339
5628.404, 192.5194
5630.332, 195.7406
5632.261, 192.4560
5634.189, 191.0286
5636.118, 192.7153
5638.046, 196.0341
5639.975, 192.2251
5641.903, 191.7151
5643.832, 192.1814
5645.760, 188.6221
5647.688, 188.8733
5649.617, 189.4420
5651.545, 188.8732
5653.474, 191.6183
5655.402, 195.9551
5657.331, 197.0063
5659.259, 195.0912
5661.188, 192.0215
5663.116, 194.1295
5665.044, 191.1799
5666.973, 189.0020
5668.901, 195.1204
5670.830, 189.6021
5672.758, 191.5311
5674.687, 196.0089
5676.615, 194.4330
5678.544, 192.8555
5680.472, 193.4444
5682.401, 192.3208
5684.329, 192.5214
5686.258, 192.3329
5688.186, 192.7312
5690.115, 193.9542
5692.043, 193.5631
5693.972, 194.1318
5695.900, 196.0989
5697.829, 194.3938
5699.757, 196.0889
5701.686, 191.4494
5703.614, 195.6664
5705.542, 195.3305
5707.471, 190.8323
5709.399, 194.1420
5711.328, 189.9880
5713.256, 188.8297
5715.185, 193.5512
5717.113, 193.9911
5719.042, 191.5120
5720.970, 188.8819
5722.898, 188.5514
5724.827, 187.7561
5726.755, 187.0069
5728.684, 189.2316
5730.612, 186.2945
5732.541, 188.9064
5734.469, 188.1509
5736.398, 188.0747
5738.326, 188.6033
5740.255, 188.2746
5742.183, 186.5480
5744.112, 188.6270
5746.040, 192.1897
5747.969, 193.9802
5749.897, 188.5462
5751.826, 193.8057
5753.754, 195.2973
5755.683, 187.3376
5757.611, 192.0019
5759.540, 194.5999
5761.468, 193.0687
5763.396, 190.9929
5765.325, 197.5643
5767.253, 184.2681
5769.182, 183.6375
5771.110, 192.0209
5773.039, 188.9734
5774.967, 191.1552
5776.896, 190.4860
5778.824, 189.1278
5780.752, 190.5492
5782.681, 190.5711
5784.609, 192.4730
5786.538, 192.5618
5788.466, 189.6232
5790.395, 189.9980
5792.323, 187.5770
5794.252, 190.1095
5796.180, 188.6660
5798.109, 193.9332
5800.037, 188.3941
5801.966, 187.9486
5803.894, 189.0210
5805.823, 185.4866
5807.751, 188.6116
5809.680, 193.8541
5811.608, 198.3290
5813.537, 199.2977
5815.465, 191.5242
5817.394, 192.0415
5819.322, 191.8212
5821.250, 189.3615
5823.179, 190.7728
5825.107, 191.2892
5827.036, 190.8564
5828.964, 191.8977
5830.893, 191.4190
5832.821, 191.9189
5834.750, 192.1672
5836.678, 190.2429
5838.606, 186.3980
5840.535, 187.2066
5842.463, 186.7623
5844.392, 189.6037
5846.320, 192.0176
5848.249, 186.7118
5850.177, 189.1830
5852.106, 185.9635
5854.034, 185.4371
5855.963, 191.8148
5857.891, 188.4932
5859.820, 190.5199
5861.748, 191.7977
5863.677, 190.7077
5865.605, 189.9048
5867.534, 190.3625
5869.462, 190.2746
5871.391, 187.6971
5873.319, 183.8462
5875.248, 190.6443
5877.176, 190.3993
5879.104, 192.5541
5881.033, 196.6190
5882.961, 193.5028
5884.890, 193.2273
5886.818, 193.5709
5888.747, 191.8461
5890.675, 192.2818
5892.604, 191.4320
5894.532, 192.0636
5896.460, 192.9515
5898.389, 192.9376
5900.317, 194.0807
5902.246, 192.1393
5904.174, 194.6176
5906.103, 193.7669
5908.031, 191.0640
5909.960, 188.7846
5911.888, 191.5645
5913.817, 191.4767
5915.745, 190.8553
5917.674, 193.9311
5919.602, 185.7342
5921.531, 190.0075
5923.459, 191.9493
5925.388, 187.4675
5927.316, 188.8987
5929.245, 183.7444
5931.173, 183.3909
5933.102, 186.0267
5935.030, 187.7366
5936.958, 183.9229
5938.887, 190.2845
5940.815, 193.7782
5942.744, 194.5579
5944.672, 184.4953
5946.601, 188.4333
5948.529, 186.7606
5950.458, 184.8576
5952.386, 190.7662
5954.314, 182.2806
5956.243, 188.0652
5958.171, 188.1535
5960.100, 190.8488
5962.028, 187.8988
5963.957, 186.6923
5965.885, 191.1332
5967.814, 192.4471
5969.742, 188.8471
5971.671, 191.7082
5973.599, 183.0254
5975.528, 184.4724
5977.456, 190.2902
5979.385, 186.9740
5981.313, 189.9383
5983.242, 190.5106
5985.170, 180.2127
5987.099, 188.8192
5989.027, 189.2503
5990.956, 181.2866
5992.884, 189.2456
5994.813, 182.4392
5996.741, 180.9032
5998.669, 183.3335
6000.598, 181.6289
6002.526, 186.4433
6004.455, 184.9775
6006.383, 182.9508
6008.312, 183.3725
6010.240, 176.8558
6012.168, 183.2116
6014.097, 180.7742
6016.025, 182.7078
6017.954, 185.6320
6019.882, 180.9705
6021.811, 184.3398
6023.739, 175.2552
6025.668, 178.6789
6027.596, 182.7870
6029.525, 179.1425
6031.453, 176.2737
6033.382, 177.4691
6035.310, 179.7943
6037.239, 179.5135
6039.167, 180.2806
6041.096, 179.2225
6043.024, 174.7538
6044.953, 172.4808
6046.881, 177.7653
6048.810, 180.7812
6050.738, 182.3035
6052.667, 181.6142
6054.595, 178.8978
6056.523, 175.2209
6058.452, 173.6488
6060.380, 173.9288
6062.309, 172.8150
6064.237, 177.9773
6066.166, 174.1672
6068.094, 175.1063
6070.022, 177.3102
6071.951, 174.5299
6073.879, 173.2115
6075.808, 174.4079
6077.736, 178.3929
6079.665, 174.9719
6081.593, 175.5914
6083.522, 174.6028
6085.450, 173.1516
6087.379, 171.5714
6089.307, 172.5176
6091.236, 173.2827
6093.164, 175.8717
6095.093, 175.6932
6097.021, 177.9744
6098.950, 175.1468
6100.878, 175.6609
6102.807, 172.8782
6104.735, 172.6987
6106.664, 173.1401
6108.592, 171.1267
6110.521, 173.5427
6112.449, 171.2241
6114.377, 168.9741
6116.306, 174.5952
6118.234, 177.0955
6120.163, 172.3534
6122.091, 170.5098
6124.020, 172.0053
6125.948, 171.3128
6127.876, 170.9055
6129.805, 170.1871
6131.733, 169.8508
6133.662, 168.3778
6135.590, 166.9729
6137.519, 167.9513
6139.447, 167.5869
6141.376, 169.6417
6143.304, 173.4162
6145.233, 176.7168
6147.161, 172.3345
6149.090, 165.9796
6151.018, 169.3571
6152.947, 173.5966
6154.875, 171.8024
6156.804, 163.4721
6158.732, 170.5003
6160.661, 167.5818
6162.589, 167.0570
6164.518, 169.5623
6166.446, 170.5119
6168.375, 169.9548
6170.303, 166.7430
6172.231, 163.2270
6174.160, 165.4142
6176.088, 170.7257
6178.017, 168.5443
6179.945, 170.0603
6181.874, 171.6745
6183.802, 171.4779
6185.730, 169.4941
6187.659, 166.7330
6189.587, 164.1058
6191.516, 167.7047
6193.444, 168.2673
6195.373, 167.7508
6197.301, 168.6427
6199.230, 170.2025
6201.158, 169.2923
6203.087, 167.8134
6205.015, 168.8432
6206.944, 167.7507
6208.872, 168.3130
6210.801, 170.0790
6212.729, 165.2745
6214.658, 166.1245
6216.586, 165.0556
6218.515, 162.0243
6220.443, 164.1883
6222.372, 167.0690
6224.300, 165.8927
6226.229, 168.0407
6228.157, 168.7734
6230.085, 166.6865
6232.014, 169.5535
6233.942, 161.2137
6235.871, 166.8317
6237.799, 164.3665
6239.728, 159.2000
6241.656, 164.1153
6243.584, 168.4731
6245.513, 163.8026
6247.441, 162.7320
6249.370, 167.0989
6251.298, 170.1393
6253.227, 164.8173
6255.155, 153.5251
6257.084, 157.1964
6259.012, 160.3472
6260.941, 162.0525
6262.869, 163.9874
6264.798, 164.7833
6266.726, 162.6969
6268.655, 160.5730
6270.583, 164.6571
6272.512, 165.7713
6274.440, 161.4938
6276.369, 161.2501
6278.297, 158.7201
6280.226, 163.4324
6282.154, 163.4245
6284.083, 164.8469
6286.011, 168.5322
6287.939, 159.4328
6289.868, 157.7020
6291.796, 161.1026
6293.725, 165.8137
6295.653, 165.9355
6297.582, 161.6021
6299.510, 161.0206
6301.438, 158.4287
6303.367, 158.4875
6305.295, 162.6590
6307.224, 162.0994
6309.152, 157.1069
6311.081, 162.4907
6313.009, 155.4622
6314.938, 160.4895
6316.866, 163.6568
6318.795, 159.7998
6320.723, 154.9455
6322.652, 157.7306
6324.580, 159.4351
6326.509, 161.4278
6328.437, 161.2441
6330.366, 158.7298
6332.294, 156.3097
6334.223, 156.2234
6336.151, 153.8338
6338.080, 153.9870
6340.008, 160.1257
6341.937, 163.4930
6343.865, 161.2267
6345.793, 157.8659
6347.722, 158.4229
6349.650, 156.8776
6351.579, 156.0357
6353.507, 152.5511
6355.436, 151.9917
6357.364, 151.0902
6359.292, 149.7763
6361.221, 150.6853
6363.149, 155.4707
6365.078, 156.4340
6367.006, 156.3719
6368.935, 157.4988
6370.863, 156.0582
6372.792, 156.2792
6374.720, 155.8247
6376.649, 154.3089
6378.577, 154.3763
6380.506, 155.3395
6382.434, 155.5093
6384.363, 159.1265
6386.291, 158.1033
6388.220, 152.9074
6390.148, 156.3982
6392.077, 155.2684
6394.005, 151.3802
6395.934, 154.0905
6397.862, 155.7641
6399.791, 149.3763
6401.719, 151.1255
6403.647, 152.5639
6405.576, 153.9489
6407.504, 154.9945
6409.433, 153.0370
6411.361, 156.7486
6413.290, 152.9128
6415.218, 153.4114
6417.146, 155.4471
6419.075, 154.1209
6421.003, 152.3972
6422.932, 152.7190
6424.860, 153.8911
6426.789, 151.0739
6428.717, 157.2784
6430.646, 159.8230
6432.574, 159.5388
6434.503, 160.5318
6436.431, 157.3081
6438.360, 158.1080
6440.288, 154.2656
6442.217, 149.2459
6444.145, 146.8011
6446.074, 146.6544
6448.002, 146.5307
6449.931, 146.3873
6451.859, 146.9480
6453.788, 148.5687
6455.716, 148.1813
6457.645, 151.1891
6459.573, 151.8717
6461.501, 151.4678
6463.430, 151.8699
6465.358, 149.4968
6467.287, 146.9398
6469.215, 150.0730
6471.144, 152.0128
6473.072, 146.5707
6475.000, 148.0353
6476.929, 148.4187
6478.857, 147.6567
6480.786, 146.1720
6482.714, 145.7121
6484.643, 148.3118
6486.571, 146.6509
6488.500, 148.4137
6490.428, 146.2339
6492.357, 147.0768
6494.285, 147.5272
6496.214, 146.4383
6498.142, 145.5579
6500.071, 145.6899
6501.999, 144.8255
6503.928, 145.5453
6505.856, 144.9891
6507.785, 145.0542
6509.713, 144.3577
6511.642, 144.8635
6513.570, 144.3868
6515.499, 143.0829
6517.427, 144.1879
6519.355, 144.5635
6521.284, 145.7076
6523.212, 146.3862
6525.141, 147.5243
6527.069, 147.1776
6528.998, 147.8214
6530.926, 145.5978
6532.854, 147.7389
6534.783, 141.7430
6536.711, 140.2108
6538.640, 138.4769
6540.568, 140.2835
6542.497, 143.8069
6544.425, 138.7343
6546.354, 141.4576
6548.282, 146.1953
6550.211, 143.5067
6552.139, 141.5570
6554.068, 140.7875
6555.996, 142.6593
6557.925, 145.2471
6559.853, 144.0057
6561.782, 144.4615
6563.710, 142.3924
6565.639, 142.9711
6567.567, 140.8985
6569.496, 141.1200
6571.424, 138.8943
6573.353, 138.9965
6575.281, 137.1029
6577.209, 139.3138
6579.138, 139.8453
6581.066, 140.9628
6582.995, 137.4795
6584.923, 133.6862
6586.852, 135.7825
6588.780, 142.2579
6590.708, 139.7491
6592.637, 141.4721
6594.565, 144.5260
6596.494, 138.4270
6598.422, 134.4241
6600.351, 136.6459
6602.279, 137.9828
6604.208, 134.2386
6606.136, 134.9164
6608.065, 138.7215
6609.993, 138.0476
6611.922, 139.8298
6613.850, 140.0629
6615.779, 139.3795
6617.707, 139.5833
6619.636, 134.4319
6621.564, 133.7619
6623.493, 133.8143
6625.421, 138.5318
6627.350, 134.9648
6629.278, 138.2591
##END=



